# wavelength (microns), transmission, emissivity
0.6000,0.4197,0.0000
0.6100,0.4693,0.0000
0.6200,0.5126,0.0000
0.6300,0.5508,0.0000
0.6400,0.5841,0.0000
0.6500,0.6163,0.0000
0.6600,0.6451,0.0000
0.6700,0.6664,0.0000
0.6800,0.6876,0.0000
0.6900,0.7034,0.0000
0.7000,0.7158,0.0000
0.7100,0.7279,0.0000
0.7200,0.7382,0.0000
0.7300,0.7481,0.0000
0.7400,0.7574,0.0000
0.7500,0.7659,0.0000
0.7700,0.7740,0.0000
0.7800,0.7815,0.0000
0.7900,0.7883,0.0000
0.8000,0.7950,0.0000
0.8100,0.8004,0.0000
0.8200,0.8048,0.0000
0.8300,0.8096,0.0000
0.8400,0.8137,0.0000
0.8500,0.8175,0.0000
0.8600,0.8210,0.0000
0.8700,0.8238,0.0000
0.8800,0.8262,0.0000
0.8900,0.8296,0.0000
0.9000,0.8318,0.0000
0.9100,0.8341,0.0000
0.9200,0.8366,0.0000
0.9300,0.8395,0.0000
0.9400,0.8418,0.0000
0.9500,0.8441,0.0000
0.9600,0.8454,0.0000
0.9700,0.8473,0.0000
0.9800,0.8494,0.0000
0.9900,0.8509,0.0000
1.0000,0.8520,0.0000
1.0100,0.8529,0.0000
1.0200,0.8537,0.0000
1.0300,0.8547,0.0000
1.0400,0.8551,0.0000
1.0500,0.8553,0.0000
1.0600,0.8557,0.0000
1.0700,0.8563,0.0000
1.0800,0.8576,0.0000
1.0900,0.8592,0.0000
1.1000,0.8602,0.0000
1.1100,0.8613,0.0000
1.1200,0.8621,0.0000
1.1300,0.8629,0.0000
1.1400,0.8635,0.0000
1.1500,0.8634,0.0000
1.1600,0.8630,0.0000
1.1700,0.8627,0.0000
1.1800,0.8623,0.0000
1.1900,0.8625,0.0000
1.2000,0.8631,0.0000
1.2100,0.8629,0.0000
1.2200,0.8628,0.0000
1.2300,0.8631,0.0000
1.2400,0.8638,0.0000
1.2500,0.8643,0.0000
1.2600,0.8644,0.0000
1.2700,0.8638,0.0000
1.2800,0.8637,0.0000
1.2900,0.8639,0.0000
1.3000,0.8644,0.0000
1.3100,0.8646,0.0000
1.3200,0.8645,0.0000
1.3300,0.8641,0.0000
1.3400,0.8639,0.0000
1.3500,0.8641,0.0000
1.3600,0.8641,0.0000
1.3700,0.8634,0.0000
1.3800,0.8632,0.0000
1.3900,0.8638,0.0000
1.4000,0.8643,0.0000
1.4100,0.8641,0.0000
1.4200,0.8640,0.0000
1.4300,0.8643,0.0000
1.4400,0.8646,0.0000
1.4500,0.8645,0.0000
1.4600,0.8643,0.0000
1.4700,0.8640,0.0000
1.4800,0.8643,0.0000
1.4900,0.8643,0.0000
1.5000,0.8640,0.0000
1.5100,0.8647,0.0000
1.5200,0.8652,0.0000
1.5300,0.8653,0.0000
1.5400,0.8658,0.0000
1.5500,0.8663,0.0000
1.5600,0.8670,0.0000
1.5700,0.8673,0.0000
1.5800,0.8670,0.0000
1.5900,0.8670,0.0000
1.6000,0.8672,0.0000
1.6100,0.8671,0.0000
1.6200,0.8671,0.0000
1.6300,0.8673,0.0000
1.6400,0.8673,0.0000
1.6500,0.8671,0.0000
1.6600,0.8669,0.0000
1.6700,0.8673,0.0000
1.6800,0.8680,0.0000
1.6900,0.8684,0.0000
1.7000,0.8680,0.0000
1.7100,0.8680,0.0000
1.7200,0.8685,0.0000
1.7300,0.8693,0.0000
1.7400,0.8692,0.0000
1.7500,0.8694,0.0000
1.7600,0.8698,0.0000
1.7700,0.8697,0.0000
1.7800,0.8697,0.0000
1.7900,0.8700,0.0000
1.8000,0.8700,0.0000
1.8100,0.8707,0.0000
1.8200,0.8710,0.0000
1.8300,0.8709,0.0000
1.8400,0.8718,0.0000
1.8500,0.8727,0.0000
1.8600,0.8729,0.0000
1.8700,0.8725,0.0000
1.8800,0.8722,0.0000
1.8900,0.8723,0.0000
1.9000,0.8728,0.0000
1.9100,0.8739,0.0000
1.9200,0.8745,0.0000
1.9300,0.8748,0.0000
1.9400,0.8759,0.0000
1.9500,0.8765,0.0000
1.9600,0.8766,0.0000
1.9700,0.8766,0.0000
1.9800,0.8757,0.0000
1.9900,0.8750,0.0000
2.0000,0.8750,0.0000
2.0100,0.8750,0.0000
2.0200,0.8749,0.0000
2.0300,0.8747,0.0000
2.0400,0.8748,0.0000
2.0500,0.8748,0.0000
2.0600,0.8749,0.0000
2.0700,0.8745,0.0000
2.0800,0.8744,0.0000
2.0900,0.8750,0.0000
2.1000,0.8759,0.0000
2.1100,0.8770,0.0000
2.1200,0.8782,0.0000
2.1300,0.8790,0.0000
2.1400,0.8803,0.0000
2.1500,0.8812,0.0000
2.1600,0.8811,0.0000
2.1700,0.8814,0.0000
2.1800,0.8816,0.0000
2.1900,0.8816,0.0000
2.2000,0.8819,0.0000
2.2100,0.8818,0.0000
2.2200,0.8808,0.0000
2.2300,0.8807,0.0000
2.2400,0.8807,0.0000
2.2500,0.8805,0.0000
2.2600,0.8811,0.0000
2.2700,0.8815,0.0000
2.2800,0.8821,0.0000
2.2900,0.8830,0.0000
2.3000,0.8833,0.0000
2.3100,0.8830,0.0000
2.3200,0.8825,0.0000
2.3300,0.8812,0.0000
2.3400,0.8808,0.0000
2.3500,0.8804,0.0000
2.3600,0.8802,0.0000
2.3700,0.8798,0.0000
2.3800,0.8790,0.0000
2.3900,0.8786,0.0000
2.4000,0.8788,0.0000
2.4100,0.8781,0.0000
2.4200,0.8779,0.0000
2.4300,0.8786,0.0000
2.4400,0.8801,0.0000
2.4500,0.8818,0.0000
2.4600,0.8832,0.0000
2.4700,0.8835,0.0000
2.4800,0.8846,0.0000
2.4900,0.8854,0.0000
2.5000,0.8854,0.0000
2.5100,0.8851,0.0000
2.5200,0.8852,0.0000
2.5300,0.8853,0.0000
2.5400,0.8862,0.0000
2.5500,0.8865,0.0000
2.5600,0.8868,0.0000
2.5700,0.8872,0.0000
2.5800,0.8875,0.0000
2.5900,0.8878,0.0000
2.6000,0.8882,0.0000
2.6100,0.8883,0.0000
2.6200,0.8884,0.0000
2.6300,0.8887,0.0000
2.6400,0.8888,0.0000
2.6500,0.8890,0.0000
2.6600,0.8890,0.0000
2.6700,0.8886,0.0000
2.6800,0.8887,0.0000
2.6900,0.8889,0.0000
2.7000,0.8882,0.0000
2.7100,0.8884,0.0000
2.7200,0.8877,0.0000
2.7300,0.8871,0.0000
2.7400,0.8869,0.0000
2.7500,0.8864,0.0000
2.7600,0.8858,0.0000
2.7700,0.8856,0.0000
2.7800,0.8847,0.0000
2.7900,0.8849,0.0000
2.8000,0.8847,0.0000
2.8100,0.8844,0.0000
2.8200,0.8842,0.0000
2.8300,0.8840,0.0000
2.8400,0.8838,0.0000
2.8500,0.8837,0.0000
2.8600,0.8833,0.0000
2.8700,0.8831,0.0000
2.8800,0.8829,0.0000
2.8900,0.8826,0.0000
2.9000,0.8825,0.0000
2.9100,0.8825,0.0000
2.9200,0.8825,0.0000
2.9300,0.8826,0.0000
2.9400,0.8826,0.0000
2.9500,0.8828,0.0000
2.9600,0.8832,0.0000
2.9700,0.8835,0.0000
2.9800,0.8835,0.0000
2.9900,0.8837,0.0000
3.0000,0.8840,0.0000
3.0100,0.8842,0.0000
3.0200,0.8842,0.0000
3.0300,0.8842,0.0000
3.0400,0.8844,0.0000
3.0500,0.8849,0.0000
3.0600,0.8849,0.0000
3.0700,0.8853,0.0000
3.0800,0.8855,0.0000
3.0900,0.8859,0.0000
3.1000,0.8861,0.0000
3.1100,0.8862,0.0000
3.1200,0.8864,0.0000
3.1300,0.8868,0.0000
3.1400,0.8868,0.0000
3.1500,0.8871,0.0000
3.1600,0.8872,0.0000
3.1700,0.8874,0.0000
3.1800,0.8876,0.0000
3.1900,0.8877,0.0000
3.2000,0.8879,0.0000
3.2100,0.8883,0.0000
3.2200,0.8885,0.0000
3.2300,0.8887,0.0000
3.2400,0.8890,0.0000
3.2500,0.8893,0.0000
3.2600,0.8895,0.0000
3.2700,0.8896,0.0000
3.2800,0.8897,0.0000
3.2900,0.8899,0.0000
3.3000,0.8901,0.0000
3.3100,0.8901,0.0000
3.3200,0.8902,0.0000
3.3300,0.8905,0.0000
3.3400,0.8906,0.0000
3.3500,0.8907,0.0000
3.3600,0.8909,0.0000
3.3700,0.8911,0.0000
3.3800,0.8912,0.0000
3.3900,0.8914,0.0000
3.4000,0.8915,0.0000
3.4100,0.8917,0.0000
3.4200,0.8918,0.0000
3.4300,0.8918,0.0000
3.4400,0.8920,0.0000
3.4500,0.8922,0.0000
3.4600,0.8925,0.0000
3.4700,0.8926,0.0000
3.4800,0.8929,0.0000
3.4900,0.8930,0.0000
3.5000,0.8932,0.0000
3.5100,0.8933,0.0000
3.5200,0.8933,0.0000
3.5300,0.8933,0.0000
3.5400,0.8934,0.0000
3.5500,0.8932,0.0000
3.5600,0.8933,0.0000
3.5700,0.8934,0.0000
3.5800,0.8934,0.0000
3.5900,0.8935,0.0000
3.6000,0.8936,0.0000
3.6100,0.8938,0.0000
3.6200,0.8940,0.0000
3.6300,0.8941,0.0000
3.6400,0.8942,0.0000
3.6500,0.8944,0.0000
3.6600,0.8945,0.0000
3.6700,0.8946,0.0000
3.6800,0.8948,0.0000
3.6900,0.8949,0.0000
3.7000,0.8950,0.0000
3.7100,0.8951,0.0000
3.7200,0.8952,0.0000
3.7300,0.8953,0.0000
3.7400,0.8955,0.0000
3.7500,0.8957,0.0000
3.7600,0.8958,0.0000
3.7700,0.8959,0.0000
3.7800,0.8960,0.0000
3.7900,0.8961,0.0000
3.8000,0.8963,0.0000
3.8100,0.8965,0.0000
3.8200,0.8966,0.0000
3.8300,0.8969,0.0000
3.8400,0.8971,0.0000
3.8500,0.8972,0.0000
3.8600,0.8973,0.0000
3.8700,0.8974,0.0000
3.8800,0.8974,0.0000
3.8900,0.8976,0.0000
3.9000,0.8977,0.0000
3.9100,0.8977,0.0000
3.9200,0.8979,0.0000
3.9300,0.8981,0.0000
3.9400,0.8982,0.0000
3.9500,0.8983,0.0000
3.9600,0.8983,0.0000
3.9700,0.8983,0.0000
3.9800,0.8986,0.0000
3.9900,0.8987,0.0000
4.0000,0.8987,0.0000
4.0100,0.8989,0.0000
4.0200,0.8990,0.0000
4.0300,0.8992,0.0000
4.0400,0.8993,0.0000
4.0500,0.8994,0.0000
4.0600,0.8996,0.0000
4.0700,0.8997,0.0000
4.0800,0.8999,0.0000
4.0900,0.9000,0.0000
4.1000,0.9001,0.0000
4.1100,0.9003,0.0000
4.1200,0.9004,0.0000
4.1300,0.9005,0.0000
4.1400,0.9007,0.0000
4.1500,0.9008,0.0000
4.1600,0.9008,0.0000
4.1700,0.9010,0.0000
4.1800,0.9013,0.0000
4.1900,0.9015,0.0000
4.2000,0.9016,0.0000
4.2100,0.9017,0.0000
4.2200,0.9021,0.0000
4.2300,0.9022,0.0000
4.2400,0.9024,0.0000
4.2500,0.9025,0.0000
4.2600,0.9025,0.0000
4.2700,0.9026,0.0000
4.2800,0.9028,0.0000
4.2900,0.9028,0.0000
4.3000,0.9030,0.0000
4.3100,0.9029,0.0000
4.3200,0.9028,0.0000
4.3300,0.9030,0.0000
4.3400,0.9030,0.0000
4.3500,0.9029,0.0000
4.3600,0.9028,0.0000
4.3700,0.9029,0.0000
4.3800,0.9030,0.0000
4.3900,0.9031,0.0000
4.4000,0.9033,0.0000
4.4100,0.9034,0.0000
4.4200,0.9035,0.0000
4.4300,0.9036,0.0000
4.4400,0.9036,0.0000
4.4500,0.9037,0.0000
4.4600,0.9037,0.0000
4.4700,0.9038,0.0000
4.4800,0.9038,0.0000
4.4900,0.9039,0.0000
4.5000,0.9039,0.0000
4.5100,0.9040,0.0000
4.5200,0.9041,0.0000
4.5300,0.9042,0.0000
4.5400,0.9043,0.0000
4.5500,0.9043,0.0000
4.5600,0.9045,0.0000
4.5700,0.9046,0.0000
4.5800,0.9047,0.0000
4.5900,0.9049,0.0000
4.6000,0.9049,0.0000
4.6100,0.9049,0.0000
4.6200,0.9050,0.0000
4.6300,0.9050,0.0000
4.6400,0.9050,0.0000
4.6500,0.9051,0.0000
4.6600,0.9051,0.0000
4.6700,0.9052,0.0000
4.6800,0.9053,0.0000
4.6900,0.9053,0.0000
4.7000,0.9053,0.0000
4.7100,0.9055,0.0000
4.7200,0.9056,0.0000
4.7300,0.9056,0.0000
4.7400,0.9057,0.0000
4.7500,0.9059,0.0000
4.7600,0.9060,0.0000
4.7700,0.9063,0.0000
4.7800,0.9065,0.0000
4.7900,0.9065,0.0000
4.8000,0.9066,0.0000
4.8100,0.9068,0.0000
4.8200,0.9068,0.0000
4.8300,0.9070,0.0000
4.8400,0.9071,0.0000
4.8500,0.9072,0.0000
4.8600,0.9074,0.0000
4.8700,0.9077,0.0000
4.8800,0.9078,0.0000
4.8900,0.9080,0.0000
4.9000,0.9082,0.0000
4.9100,0.9083,0.0000
4.9200,0.9085,0.0000
4.9300,0.9086,0.0000
4.9400,0.9087,0.0000
4.9500,0.9089,0.0000
4.9600,0.9090,0.0000
4.9700,0.9092,0.0000
4.9800,0.9095,0.0000
4.9900,0.9097,0.0000
5.0000,0.9100,0.0000
5.0500,0.9106,0.0000
5.1000,0.9112,0.0000
5.1500,0.9117,0.0000
5.2000,0.9123,0.0000
5.2500,0.9129,0.0000
5.3000,0.9135,0.0000
5.3500,0.9140,0.0000
5.4000,0.9145,0.0000
5.4500,0.9149,0.0000
5.5000,0.9152,0.0000
5.5500,0.9154,0.0000
5.6000,0.9155,0.0000
5.6500,0.9156,0.0000
5.7000,0.9159,0.0000
5.7500,0.9161,0.0000
5.8000,0.9164,0.0000
5.8500,0.9169,0.0000
5.9000,0.9175,0.0000
5.9500,0.9180,0.0000
6.0000,0.9185,0.0000
6.0500,0.9191,0.0000
6.1000,0.9196,0.0000
6.1500,0.9201,0.0000
6.2000,0.9204,0.0000
6.2500,0.9208,0.0000
6.3000,0.9210,0.0000
6.3500,0.9214,0.0000
6.4000,0.9215,0.0000
6.4500,0.9217,0.0000
6.5000,0.9220,0.0000
6.5500,0.9222,0.0000
6.6000,0.9223,0.0000
6.6500,0.9225,0.0000
6.7000,0.9224,0.0000
6.7500,0.9226,0.0000
6.8000,0.9228,0.0000
6.8500,0.9231,0.0000
6.9000,0.9233,0.0000
6.9500,0.9236,0.0000
7.0000,0.9240,0.0000
7.0500,0.9244,0.0000
7.1000,0.9247,0.0000
7.1500,0.9250,0.0000
7.2000,0.9254,0.0000
7.2500,0.9259,0.0000
7.3000,0.9264,0.0000
7.3500,0.9271,0.0000
7.4000,0.9278,0.0000
7.4500,0.9288,0.0000
7.5000,0.9297,0.0000
7.5500,0.9305,0.0000
7.6000,0.9315,0.0000
7.6500,0.9325,0.0000
7.7000,0.9334,0.0000
7.7500,0.9343,0.0000
7.8000,0.9350,0.0000
7.8500,0.9355,0.0000
7.9000,0.9359,0.0000
7.9500,0.9360,0.0000
8.0000,0.9360,0.0000
8.0500,0.9356,0.0000
8.1000,0.9352,0.0000
8.1500,0.9349,0.0000
8.2000,0.9350,0.0000
8.2500,0.9352,0.0000
8.3000,0.9356,0.0000
8.3500,0.9360,0.0000
8.4000,0.9365,0.0000
8.4500,0.9368,0.0000
8.5000,0.9372,0.0000
8.5500,0.9374,0.0000
8.6000,0.9376,0.0000
8.6500,0.9378,0.0000
8.7000,0.9380,0.0000
8.7500,0.9381,0.0000
8.8000,0.9383,0.0000
8.8500,0.9385,0.0000
8.9000,0.9388,0.0000
8.9500,0.9388,0.0000
9.0000,0.9386,0.0000
9.0500,0.9383,0.0000
9.1000,0.9378,0.0000
9.1500,0.9373,0.0000
9.2000,0.9365,0.0000
9.2500,0.9357,0.0000
9.3000,0.9352,0.0000
9.3500,0.9351,0.0000
9.4000,0.9351,0.0000
9.4500,0.9354,0.0000
9.5000,0.9360,0.0000
9.5500,0.9367,0.0000
9.6000,0.9375,0.0000
9.6500,0.9382,0.0000
9.7000,0.9390,0.0000
9.7500,0.9399,0.0000
9.8000,0.9406,0.0000
9.8500,0.9412,0.0000
9.9000,0.9416,0.0000
9.9500,0.9419,0.0000
10.0000,0.9420,0.0000
10.1000,0.9422,0.0000
10.2000,0.9422,0.0000
10.3000,0.9420,0.0000
10.4000,0.9420,0.0000
10.5000,0.9419,0.0000
10.6000,0.9419,0.0000
10.7000,0.9419,0.0000
10.8000,0.9418,0.0000
10.9000,0.9420,0.0000
11.0000,0.9422,0.0000
11.1000,0.9423,0.0000
11.2000,0.9427,0.0000
11.3000,0.9430,0.0000
11.4000,0.9433,0.0000
11.5000,0.9437,0.0000
11.6000,0.9437,0.0000
11.7000,0.9440,0.0000
11.8000,0.9440,0.0000
11.9000,0.9439,0.0000
12.0000,0.9438,0.0000
12.1000,0.9439,0.0000
12.2000,0.9443,0.0000
12.3000,0.9446,0.0000
12.4000,0.9447,0.0000
12.5000,0.9451,0.0000
12.6000,0.9454,0.0000
12.7000,0.9456,0.0000
12.8000,0.9458,0.0000
12.9000,0.9459,0.0000
13.0000,0.9459,0.0000
13.1000,0.9461,0.0000
13.2000,0.9463,0.0000
13.3000,0.9464,0.0000
13.4000,0.9467,0.0000
13.5000,0.9469,0.0000
13.6000,0.9467,0.0000
13.7000,0.9469,0.0000
13.8000,0.9472,0.0000
13.9000,0.9474,0.0000
14.0000,0.9474,0.0000
14.1000,0.9476,0.0000
14.2000,0.9477,0.0000
14.3000,0.9482,0.0000
14.4000,0.9485,0.0000
14.5000,0.9485,0.0000
14.6000,0.9489,0.0000
14.7000,0.9498,0.0000
14.8000,0.9502,0.0000
14.9000,0.9503,0.0000
15.0000,0.9504,0.0000
15.1000,0.9506,0.0000
15.2000,0.9505,0.0000
15.3000,0.9504,0.0000
15.4000,0.9499,0.0000
15.5000,0.9497,0.0000
15.6000,0.9499,0.0000
15.7000,0.9501,0.0000
15.8000,0.9503,0.0000
15.9000,0.9503,0.0000
16.0000,0.9503,0.0000
16.1000,0.9508,0.0000
16.2000,0.9513,0.0000
16.3000,0.9518,0.0000
16.4000,0.9521,0.0000
16.5000,0.9524,0.0000
16.6000,0.9532,0.0000
16.7000,0.9536,0.0000
16.8000,0.9538,0.0000
16.9000,0.9538,0.0000
17.0000,0.9539,0.0000
17.1000,0.9539,0.0000
17.2000,0.9539,0.0000
17.3000,0.9540,0.0000
17.4000,0.9541,0.0000
17.5000,0.9542,0.0000
17.6000,0.9545,0.0000
17.7000,0.9550,0.0000
17.8000,0.9558,0.0000
17.9000,0.9566,0.0000
18.0000,0.9571,0.0000
18.1000,0.9575,0.0000
18.2000,0.9581,0.0000
18.3000,0.9587,0.0000
18.4000,0.9588,0.0000
18.5000,0.9588,0.0000
18.6000,0.9591,0.0000
18.7000,0.9596,0.0000
18.8000,0.9596,0.0000
18.9000,0.9596,0.0000
19.0000,0.9602,0.0000
19.1000,0.9608,0.0000
19.2000,0.9608,0.0000
19.3000,0.9610,0.0000
19.4000,0.9615,0.0000
19.5000,0.9625,0.0000
19.6000,0.9635,0.0000
19.7000,0.9635,0.0000
19.8000,0.9628,0.0000
19.9000,0.9639,0.0000
20.0000,0.9610,0.0000
21.0000,0.9606,0.0000
22.0000,0.9606,0.0000
23.0000,0.9606,0.0000
24.0000,0.9606,0.0000
25.0000,0.9606,0.0000
26.0000,0.9606,0.0000
27.0000,0.9606,0.0000
28.0000,0.9606,0.0000
29.0000,0.9606,0.0000
30.0000,0.9606,0.0000
