# wavelength (microns), transmission, emissivity
0.5000,0.1877,0.0000
0.5010,0.1885,0.0000
0.5020,0.1893,0.0000
0.5030,0.1902,0.0000
0.5040,0.1911,0.0000
0.5050,0.1920,0.0000
0.5060,0.1929,0.0000
0.5070,0.1938,0.0000
0.5080,0.1947,0.0000
0.5090,0.1957,0.0000
0.5100,0.1967,0.0000
0.5110,0.1976,0.0000
0.5120,0.1986,0.0000
0.5130,0.1997,0.0000
0.5140,0.2008,0.0000
0.5150,0.2018,0.0000
0.5160,0.2029,0.0000
0.5170,0.2040,0.0000
0.5180,0.2051,0.0000
0.5190,0.2063,0.0000
0.5200,0.2074,0.0000
0.5210,0.2085,0.0000
0.5220,0.2098,0.0000
0.5230,0.2110,0.0000
0.5240,0.2121,0.0000
0.5250,0.2134,0.0000
0.5260,0.2147,0.0000
0.5270,0.2160,0.0000
0.5280,0.2172,0.0000
0.5290,0.2185,0.0000
0.5300,0.2199,0.0000
0.5310,0.2212,0.0000
0.5320,0.2226,0.0000
0.5330,0.2240,0.0000
0.5340,0.2254,0.0000
0.5350,0.2268,0.0000
0.5360,0.2282,0.0000
0.5370,0.2296,0.0000
0.5380,0.2312,0.0000
0.5390,0.2326,0.0000
0.5400,0.2341,0.0000
0.5410,0.2357,0.0000
0.5420,0.2372,0.0000
0.5430,0.2388,0.0000
0.5440,0.2404,0.0000
0.5450,0.2420,0.0000
0.5460,0.2436,0.0000
0.5470,0.2452,0.0000
0.5480,0.2469,0.0000
0.5490,0.2486,0.0000
0.5500,0.2502,0.0000
0.5510,0.2520,0.0000
0.5520,0.2537,0.0000
0.5530,0.2554,0.0000
0.5540,0.2572,0.0000
0.5550,0.2590,0.0000
0.5560,0.2609,0.0000
0.5570,0.2627,0.0000
0.5580,0.2645,0.0000
0.5590,0.2664,0.0000
0.5600,0.2682,0.0000
0.5610,0.2702,0.0000
0.5620,0.2721,0.0000
0.5630,0.2740,0.0000
0.5640,0.2759,0.0000
0.5650,0.2779,0.0000
0.5660,0.2799,0.0000
0.5670,0.2820,0.0000
0.5680,0.2840,0.0000
0.5690,0.2860,0.0000
0.5700,0.2881,0.0000
0.5710,0.2902,0.0000
0.5720,0.2923,0.0000
0.5730,0.2945,0.0000
0.5740,0.2965,0.0000
0.5750,0.2987,0.0000
0.5760,0.3009,0.0000
0.5770,0.3031,0.0000
0.5780,0.3053,0.0000
0.5790,0.3075,0.0000
0.5800,0.3098,0.0000
0.5810,0.3120,0.0000
0.5820,0.3144,0.0000
0.5830,0.3167,0.0000
0.5840,0.3190,0.0000
0.5850,0.3214,0.0000
0.5860,0.3237,0.0000
0.5870,0.3261,0.0000
0.5880,0.3285,0.0000
0.5890,0.3309,0.0000
0.5900,0.3334,0.0000
0.5910,0.3357,0.0000
0.5920,0.3382,0.0000
0.5930,0.3407,0.0000
0.5940,0.3432,0.0000
0.5950,0.3458,0.0000
0.5960,0.3483,0.0000
0.5970,0.3508,0.0000
0.5980,0.3534,0.0000
0.5990,0.3561,0.0000
0.6000,0.3586,0.0000
0.6010,0.3612,0.0000
0.6020,0.3638,0.0000
0.6030,0.3665,0.0000
0.6040,0.3692,0.0000
0.6050,0.3718,0.0000
0.6060,0.3746,0.0000
0.6070,0.3772,0.0000
0.6080,0.3800,0.0000
0.6090,0.3827,0.0000
0.6100,0.3855,0.0000
0.6110,0.3882,0.0000
0.6120,0.3910,0.0000
0.6130,0.3937,0.0000
0.6140,0.3966,0.0000
0.6150,0.3995,0.0000
0.6160,0.4022,0.0000
0.6170,0.4051,0.0000
0.6180,0.4079,0.0000
0.6190,0.4108,0.0000
0.6200,0.4137,0.0000
0.6210,0.4165,0.0000
0.6220,0.4195,0.0000
0.6230,0.4223,0.0000
0.6240,0.4253,0.0000
0.6250,0.4283,0.0000
0.6260,0.4312,0.0000
0.6270,0.4341,0.0000
0.6280,0.4370,0.0000
0.6290,0.4401,0.0000
0.6300,0.4429,0.0000
0.6310,0.4460,0.0000
0.6320,0.4489,0.0000
0.6330,0.4519,0.0000
0.6340,0.4550,0.0000
0.6350,0.4579,0.0000
0.6360,0.4609,0.0000
0.6370,0.4641,0.0000
0.6380,0.4670,0.0000
0.6390,0.4700,0.0000
0.6400,0.4730,0.0000
0.6410,0.4761,0.0000
0.6420,0.4791,0.0000
0.6430,0.4821,0.0000
0.6440,0.4852,0.0000
0.6450,0.4883,0.0000
0.6460,0.4914,0.0000
0.6470,0.4943,0.0000
0.6480,0.4974,0.0000
0.6490,0.5005,0.0000
0.6500,0.5035,0.0000
0.6510,0.5066,0.0000
0.6520,0.5096,0.0000
0.6530,0.5127,0.0000
0.6540,0.5156,0.0000
0.6550,0.5187,0.0000
0.6560,0.5217,0.0000
0.6570,0.5248,0.0000
0.6580,0.5278,0.0000
0.6590,0.5308,0.0000
0.6600,0.5338,0.0000
0.6610,0.5368,0.0000
0.6620,0.5398,0.0000
0.6630,0.5428,0.0000
0.6640,0.5458,0.0000
0.6650,0.5487,0.0000
0.6660,0.5517,0.0000
0.6670,0.5547,0.0000
0.6680,0.5575,0.0000
0.6690,0.5605,0.0000
0.6700,0.5634,0.0000
0.6710,0.5663,0.0000
0.6720,0.5692,0.0000
0.6730,0.5720,0.0000
0.6740,0.5749,0.0000
0.6750,0.5776,0.0000
0.6760,0.5806,0.0000
0.6770,0.5834,0.0000
0.6780,0.5861,0.0000
0.6790,0.5889,0.0000
0.6800,0.5916,0.0000
0.6810,0.5944,0.0000
0.6820,0.5970,0.0000
0.6830,0.5997,0.0000
0.6840,0.6023,0.0000
0.6850,0.6050,0.0000
0.6860,0.6076,0.0000
0.6870,0.6102,0.0000
0.6880,0.6128,0.0000
0.6890,0.6153,0.0000
0.6900,0.6177,0.0000
0.6910,0.6202,0.0000
0.6920,0.6227,0.0000
0.6930,0.6251,0.0000
0.6940,0.6275,0.0000
0.6950,0.6298,0.0000
0.6960,0.6321,0.0000
0.6970,0.6344,0.0000
0.6980,0.6368,0.0000
0.6990,0.6389,0.0000
0.7000,0.6411,0.0000
0.7010,0.6432,0.0000
0.7020,0.6454,0.0000
0.7030,0.6475,0.0000
0.7040,0.6495,0.0000
0.7050,0.6515,0.0000
0.7060,0.6535,0.0000
0.7070,0.6554,0.0000
0.7080,0.6574,0.0000
0.7090,0.6592,0.0000
0.7100,0.6610,0.0000
0.7110,0.6629,0.0000
0.7120,0.6647,0.0000
0.7130,0.6664,0.0000
0.7140,0.6680,0.0000
0.7150,0.6697,0.0000
0.7160,0.6714,0.0000
0.7170,0.6730,0.0000
0.7180,0.6745,0.0000
0.7190,0.6761,0.0000
0.7200,0.6776,0.0000
0.7210,0.6791,0.0000
0.7220,0.6805,0.0000
0.7230,0.6819,0.0000
0.7240,0.6833,0.0000
0.7250,0.6848,0.0000
0.7260,0.6860,0.0000
0.7270,0.6874,0.0000
0.7280,0.6885,0.0000
0.7290,0.6898,0.0000
0.7300,0.6910,0.0000
0.7310,0.6923,0.0000
0.7320,0.6934,0.0000
0.7330,0.6945,0.0000
0.7340,0.6955,0.0000
0.7350,0.6967,0.0000
0.7360,0.6978,0.0000
0.7370,0.6988,0.0000
0.7380,0.6997,0.0000
0.7390,0.7007,0.0000
0.7400,0.7016,0.0000
0.7410,0.7025,0.0000
0.7420,0.7035,0.0000
0.7430,0.7043,0.0000
0.7440,0.7052,0.0000
0.7450,0.7060,0.0000
0.7460,0.7068,0.0000
0.7470,0.7075,0.0000
0.7480,0.7083,0.0000
0.7490,0.7090,0.0000
0.7500,0.7098,0.0000
0.7510,0.7104,0.0000
0.7520,0.7112,0.0000
0.7530,0.7118,0.0000
0.7540,0.7125,0.0000
0.7550,0.7131,0.0000
0.7560,0.7137,0.0000
0.7570,0.7143,0.0000
0.7580,0.7148,0.0000
0.7590,0.7154,0.0000
0.7600,0.7160,0.0000
0.7610,0.7164,0.0000
0.7620,0.7170,0.0000
0.7630,0.7176,0.0000
0.7640,0.7180,0.0000
0.7650,0.7186,0.0000
0.7660,0.7189,0.0000
0.7670,0.7193,0.0000
0.7680,0.7197,0.0000
0.7690,0.7201,0.0000
0.7700,0.7207,0.0000
0.7710,0.7211,0.0000
0.7720,0.7215,0.0000
0.7730,0.7219,0.0000
0.7740,0.7221,0.0000
0.7750,0.7225,0.0000
0.7760,0.7229,0.0000
0.7770,0.7233,0.0000
0.7780,0.7236,0.0000
0.7790,0.7239,0.0000
0.7800,0.7243,0.0000
0.7810,0.7245,0.0000
0.7820,0.7248,0.0000
0.7830,0.7253,0.0000
0.7840,0.7255,0.0000
0.7850,0.7258,0.0000
0.7860,0.7261,0.0000
0.7870,0.7265,0.0000
0.7880,0.7266,0.0000
0.7890,0.7271,0.0000
0.7900,0.7273,0.0000
0.7910,0.7276,0.0000
0.7920,0.7279,0.0000
0.7930,0.7283,0.0000
0.7940,0.7284,0.0000
0.7950,0.7289,0.0000
0.7960,0.7291,0.0000
0.7970,0.7294,0.0000
0.7980,0.7297,0.0000
0.7990,0.7301,0.0000
0.8000,0.7305,0.0000
0.8010,0.7311,0.0000
0.8020,0.7318,0.0000
0.8030,0.7325,0.0000
0.8040,0.7332,0.0000
0.8050,0.7340,0.0000
0.8060,0.7346,0.0000
0.8070,0.7354,0.0000
0.8080,0.7360,0.0000
0.8090,0.7366,0.0000
0.8100,0.7374,0.0000
0.8110,0.7380,0.0000
0.8120,0.7387,0.0000
0.8130,0.7394,0.0000
0.8140,0.7400,0.0000
0.8150,0.7405,0.0000
0.8160,0.7414,0.0000
0.8170,0.7420,0.0000
0.8180,0.7425,0.0000
0.8190,0.7432,0.0000
0.8200,0.7438,0.0000
0.8210,0.7444,0.0000
0.8220,0.7449,0.0000
0.8230,0.7456,0.0000
0.8240,0.7462,0.0000
0.8250,0.7468,0.0000
0.8260,0.7474,0.0000
0.8270,0.7479,0.0000
0.8280,0.7486,0.0000
0.8290,0.7492,0.0000
0.8300,0.7498,0.0000
0.8310,0.7502,0.0000
0.8320,0.7508,0.0000
0.8330,0.7514,0.0000
0.8340,0.7520,0.0000
0.8350,0.7524,0.0000
0.8360,0.7530,0.0000
0.8370,0.7536,0.0000
0.8380,0.7540,0.0000
0.8390,0.7546,0.0000
0.8400,0.7552,0.0000
0.8410,0.7556,0.0000
0.8420,0.7562,0.0000
0.8430,0.7567,0.0000
0.8440,0.7573,0.0000
0.8450,0.7577,0.0000
0.8460,0.7583,0.0000
0.8470,0.7587,0.0000
0.8480,0.7593,0.0000
0.8490,0.7597,0.0000
0.8500,0.7602,0.0000
0.8510,0.7607,0.0000
0.8520,0.7612,0.0000
0.8530,0.7616,0.0000
0.8540,0.7622,0.0000
0.8550,0.7626,0.0000
0.8560,0.7630,0.0000
0.8570,0.7634,0.0000
0.8580,0.7639,0.0000
0.8590,0.7644,0.0000
0.8600,0.7648,0.0000
0.8610,0.7652,0.0000
0.8620,0.7656,0.0000
0.8630,0.7661,0.0000
0.8640,0.7665,0.0000
0.8650,0.7669,0.0000
0.8660,0.7673,0.0000
0.8670,0.7677,0.0000
0.8680,0.7682,0.0000
0.8690,0.7685,0.0000
0.8700,0.7689,0.0000
0.8710,0.7694,0.0000
0.8720,0.7698,0.0000
0.8730,0.7702,0.0000
0.8740,0.7706,0.0000
0.8750,0.7710,0.0000
0.8760,0.7714,0.0000
0.8770,0.7718,0.0000
0.8780,0.7722,0.0000
0.8790,0.7725,0.0000
0.8800,0.7728,0.0000
0.8810,0.7733,0.0000
0.8820,0.7737,0.0000
0.8830,0.7741,0.0000
0.8840,0.7743,0.0000
0.8850,0.7747,0.0000
0.8860,0.7751,0.0000
0.8870,0.7756,0.0000
0.8880,0.7757,0.0000
0.8890,0.7762,0.0000
0.8900,0.7766,0.0000
0.8910,0.7768,0.0000
0.8920,0.7772,0.0000
0.8930,0.7776,0.0000
0.8940,0.7779,0.0000
0.8950,0.7782,0.0000
0.8960,0.7786,0.0000
0.8970,0.7789,0.0000
0.8980,0.7792,0.0000
0.8990,0.7795,0.0000
0.9000,0.7799,0.0000
0.9010,0.7803,0.0000
0.9020,0.7807,0.0000
0.9030,0.7811,0.0000
0.9040,0.7814,0.0000
0.9050,0.7817,0.0000
0.9060,0.7821,0.0000
0.9070,0.7826,0.0000
0.9080,0.7830,0.0000
0.9090,0.7832,0.0000
0.9100,0.7836,0.0000
0.9110,0.7840,0.0000
0.9120,0.7844,0.0000
0.9130,0.7846,0.0000
0.9140,0.7850,0.0000
0.9150,0.7854,0.0000
0.9160,0.7856,0.0000
0.9170,0.7860,0.0000
0.9180,0.7864,0.0000
0.9190,0.7867,0.0000
0.9200,0.7870,0.0000
0.9210,0.7875,0.0000
0.9220,0.7877,0.0000
0.9230,0.7881,0.0000
0.9240,0.7883,0.0000
0.9250,0.7887,0.0000
0.9260,0.7889,0.0000
0.9270,0.7893,0.0000
0.9280,0.7895,0.0000
0.9290,0.7899,0.0000
0.9300,0.7901,0.0000
0.9310,0.7906,0.0000
0.9320,0.7907,0.0000
0.9330,0.7912,0.0000
0.9340,0.7913,0.0000
0.9350,0.7916,0.0000
0.9360,0.7919,0.0000
0.9370,0.7922,0.0000
0.9380,0.7924,0.0000
0.9390,0.7928,0.0000
0.9400,0.7930,0.0000
0.9410,0.7932,0.0000
0.9420,0.7936,0.0000
0.9430,0.7938,0.0000
0.9440,0.7940,0.0000
0.9450,0.7944,0.0000
0.9460,0.7946,0.0000
0.9470,0.7948,0.0000
0.9480,0.7950,0.0000
0.9490,0.7954,0.0000
0.9500,0.7957,0.0000
0.9510,0.7958,0.0000
0.9520,0.7961,0.0000
0.9530,0.7963,0.0000
0.9540,0.7964,0.0000
0.9550,0.7969,0.0000
0.9560,0.7970,0.0000
0.9570,0.7973,0.0000
0.9580,0.7975,0.0000
0.9590,0.7977,0.0000
0.9600,0.7979,0.0000
0.9610,0.7981,0.0000
0.9620,0.7983,0.0000
0.9630,0.7985,0.0000
0.9640,0.7987,0.0000
0.9650,0.7989,0.0000
0.9660,0.7991,0.0000
0.9670,0.7994,0.0000
0.9680,0.7996,0.0000
0.9690,0.7997,0.0000
0.9700,0.8000,0.0000
0.9710,0.8002,0.0000
0.9720,0.8003,0.0000
0.9730,0.8006,0.0000
0.9740,0.8008,0.0000
0.9750,0.8009,0.0000
0.9760,0.8012,0.0000
0.9770,0.8012,0.0000
0.9780,0.8014,0.0000
0.9790,0.8016,0.0000
0.9800,0.8018,0.0000
0.9810,0.8020,0.0000
0.9820,0.8023,0.0000
0.9830,0.8023,0.0000
0.9840,0.8024,0.0000
0.9850,0.8027,0.0000
0.9860,0.8029,0.0000
0.9870,0.8030,0.0000
0.9880,0.8031,0.0000
0.9890,0.8033,0.0000
0.9900,0.8035,0.0000
0.9910,0.8036,0.0000
0.9920,0.8037,0.0000
0.9930,0.8039,0.0000
0.9940,0.8041,0.0000
0.9950,0.8042,0.0000
0.9960,0.8043,0.0000
0.9970,0.8045,0.0000
0.9980,0.8046,0.0000
0.9990,0.8048,0.0000
1.0000,0.8050,0.0000
1.0010,0.8050,0.0000
1.0020,0.8052,0.0000
1.0030,0.8054,0.0000
1.0040,0.8054,0.0000
1.0050,0.8056,0.0000
1.0060,0.8058,0.0000
1.0070,0.8058,0.0000
1.0080,0.8061,0.0000
1.0090,0.8061,0.0000
1.0100,0.8063,0.0000
1.0110,0.8065,0.0000
1.0120,0.8065,0.0000
1.0130,0.8067,0.0000
1.0140,0.8068,0.0000
1.0150,0.8070,0.0000
1.0160,0.8070,0.0000
1.0170,0.8072,0.0000
1.0180,0.8072,0.0000
1.0190,0.8074,0.0000
1.0200,0.8075,0.0000
1.0210,0.8077,0.0000
1.0220,0.8077,0.0000
1.0230,0.8078,0.0000
1.0240,0.8079,0.0000
1.0250,0.8079,0.0000
1.0260,0.8081,0.0000
1.0270,0.8082,0.0000
1.0280,0.8083,0.0000
1.0290,0.8083,0.0000
1.0300,0.8083,0.0000
1.0310,0.8086,0.0000
1.0320,0.8086,0.0000
1.0330,0.8086,0.0000
1.0340,0.8088,0.0000
1.0350,0.8089,0.0000
1.0360,0.8089,0.0000
1.0370,0.8090,0.0000
1.0380,0.8091,0.0000
1.0390,0.8091,0.0000
1.0400,0.8093,0.0000
1.0410,0.8093,0.0000
1.0420,0.8093,0.0000
1.0430,0.8094,0.0000
1.0440,0.8096,0.0000
1.0450,0.8096,0.0000
1.0460,0.8096,0.0000
1.0470,0.8097,0.0000
1.0480,0.8098,0.0000
1.0490,0.8098,0.0000
1.0500,0.8098,0.0000
1.0510,0.8099,0.0000
1.0520,0.8099,0.0000
1.0530,0.8101,0.0000
1.0540,0.8101,0.0000
1.0550,0.8101,0.0000
1.0560,0.8102,0.0000
1.0570,0.8102,0.0000
1.0580,0.8103,0.0000
1.0590,0.8103,0.0000
1.0600,0.8104,0.0000
1.0610,0.8104,0.0000
1.0620,0.8104,0.0000
1.0630,0.8104,0.0000
1.0640,0.8106,0.0000
1.0650,0.8107,0.0000
1.0660,0.8107,0.0000
1.0670,0.8107,0.0000
1.0680,0.8107,0.0000
1.0690,0.8107,0.0000
1.0700,0.8108,0.0000
1.0710,0.8108,0.0000
1.0720,0.8110,0.0000
1.0730,0.8110,0.0000
1.0740,0.8110,0.0000
1.0750,0.8110,0.0000
1.0760,0.8110,0.0000
1.0770,0.8110,0.0000
1.0780,0.8110,0.0000
1.0790,0.8110,0.0000
1.0800,0.8112,0.0000
1.0810,0.8113,0.0000
1.0820,0.8113,0.0000
1.0830,0.8113,0.0000
1.0840,0.8113,0.0000
1.0850,0.8113,0.0000
1.0860,0.8113,0.0000
1.0870,0.8114,0.0000
1.0880,0.8114,0.0000
1.0890,0.8116,0.0000
1.0900,0.8116,0.0000
1.0910,0.8116,0.0000
1.0920,0.8116,0.0000
1.0930,0.8116,0.0000
1.0940,0.8116,0.0000
1.0950,0.8116,0.0000
1.0960,0.8116,0.0000
1.0970,0.8118,0.0000
1.0980,0.8118,0.0000
1.0990,0.8118,0.0000
1.1000,0.8119,0.0000
1.1010,0.8119,0.0000
1.1020,0.8119,0.0000
1.1030,0.8121,0.0000
1.1040,0.8121,0.0000
1.1050,0.8121,0.0000
1.1060,0.8122,0.0000
1.1070,0.8122,0.0000
1.1080,0.8123,0.0000
1.1090,0.8123,0.0000
1.1100,0.8123,0.0000
1.1110,0.8123,0.0000
1.1120,0.8123,0.0000
1.1130,0.8126,0.0000
1.1140,0.8126,0.0000
1.1150,0.8126,0.0000
1.1160,0.8126,0.0000
1.1170,0.8126,0.0000
1.1180,0.8126,0.0000
1.1190,0.8128,0.0000
1.1200,0.8128,0.0000
1.1210,0.8129,0.0000
1.1220,0.8129,0.0000
1.1230,0.8129,0.0000
1.1240,0.8130,0.0000
1.1250,0.8130,0.0000
1.1260,0.8130,0.0000
1.1270,0.8130,0.0000
1.1280,0.8130,0.0000
1.1290,0.8130,0.0000
1.1300,0.8133,0.0000
1.1310,0.8133,0.0000
1.1320,0.8133,0.0000
1.1330,0.8133,0.0000
1.1340,0.8133,0.0000
1.1350,0.8135,0.0000
1.1360,0.8135,0.0000
1.1370,0.8135,0.0000
1.1380,0.8135,0.0000
1.1390,0.8136,0.0000
1.1400,0.8137,0.0000
1.1410,0.8137,0.0000
1.1420,0.8137,0.0000
1.1430,0.8137,0.0000
1.1440,0.8137,0.0000
1.1450,0.8137,0.0000
1.1460,0.8139,0.0000
1.1470,0.8139,0.0000
1.1480,0.8139,0.0000
1.1490,0.8140,0.0000
1.1500,0.8140,0.0000
1.1510,0.8142,0.0000
1.1520,0.8142,0.0000
1.1530,0.8142,0.0000
1.1540,0.8142,0.0000
1.1550,0.8142,0.0000
1.1560,0.8144,0.0000
1.1570,0.8144,0.0000
1.1580,0.8144,0.0000
1.1590,0.8144,0.0000
1.1600,0.8144,0.0000
1.1610,0.8146,0.0000
1.1620,0.8146,0.0000
1.1630,0.8146,0.0000
1.1640,0.8146,0.0000
1.1650,0.8146,0.0000
1.1660,0.8148,0.0000
1.1670,0.8148,0.0000
1.1680,0.8148,0.0000
1.1690,0.8149,0.0000
1.1700,0.8151,0.0000
1.1710,0.8151,0.0000
1.1720,0.8151,0.0000
1.1730,0.8151,0.0000
1.1740,0.8152,0.0000
1.1750,0.8152,0.0000
1.1760,0.8152,0.0000
1.1770,0.8152,0.0000
1.1780,0.8152,0.0000
1.1790,0.8155,0.0000
1.1800,0.8155,0.0000
1.1810,0.8155,0.0000
1.1820,0.8157,0.0000
1.1830,0.8157,0.0000
1.1840,0.8157,0.0000
1.1850,0.8157,0.0000
1.1860,0.8159,0.0000
1.1870,0.8159,0.0000
1.1880,0.8159,0.0000
1.1890,0.8159,0.0000
1.1900,0.8161,0.0000
1.1910,0.8161,0.0000
1.1920,0.8161,0.0000
1.1930,0.8163,0.0000
1.1940,0.8163,0.0000
1.1950,0.8164,0.0000
1.1960,0.8164,0.0000
1.1970,0.8166,0.0000
1.1980,0.8166,0.0000
1.1990,0.8166,0.0000
1.2000,0.8167,0.0000
1.2010,0.8167,0.0000
1.2020,0.8167,0.0000
1.2030,0.8170,0.0000
1.2040,0.8170,0.0000
1.2050,0.8170,0.0000
1.2060,0.8172,0.0000
1.2070,0.8172,0.0000
1.2080,0.8172,0.0000
1.2090,0.8174,0.0000
1.2100,0.8174,0.0000
1.2110,0.8174,0.0000
1.2120,0.8176,0.0000
1.2130,0.8176,0.0000
1.2140,0.8176,0.0000
1.2150,0.8179,0.0000
1.2160,0.8179,0.0000
1.2170,0.8179,0.0000
1.2180,0.8181,0.0000
1.2190,0.8181,0.0000
1.2200,0.8181,0.0000
1.2210,0.8182,0.0000
1.2220,0.8183,0.0000
1.2230,0.8185,0.0000
1.2240,0.8185,0.0000
1.2250,0.8185,0.0000
1.2260,0.8187,0.0000
1.2270,0.8188,0.0000
1.2280,0.8188,0.0000
1.2290,0.8189,0.0000
1.2300,0.8189,0.0000
1.2310,0.8191,0.0000
1.2320,0.8191,0.0000
1.2330,0.8192,0.0000
1.2340,0.8194,0.0000
1.2350,0.8194,0.0000
1.2360,0.8195,0.0000
1.2370,0.8195,0.0000
1.2380,0.8198,0.0000
1.2390,0.8198,0.0000
1.2400,0.8198,0.0000
1.2410,0.8200,0.0000
1.2420,0.8200,0.0000
1.2430,0.8202,0.0000
1.2440,0.8203,0.0000
1.2450,0.8204,0.0000
1.2460,0.8204,0.0000
1.2470,0.8204,0.0000
1.2480,0.8206,0.0000
1.2490,0.8207,0.0000
1.2500,0.8209,0.0000
1.2510,0.8209,0.0000
1.2520,0.8210,0.0000
1.2530,0.8210,0.0000
1.2540,0.8213,0.0000
1.2550,0.8213,0.0000
1.2560,0.8215,0.0000
1.2570,0.8215,0.0000
1.2580,0.8217,0.0000
1.2590,0.8218,0.0000
1.2600,0.8218,0.0000
1.2610,0.8219,0.0000
1.2620,0.8219,0.0000
1.2630,0.8221,0.0000
1.2640,0.8222,0.0000
1.2650,0.8224,0.0000
1.2660,0.8224,0.0000
1.2670,0.8225,0.0000
1.2680,0.8226,0.0000
1.2690,0.8228,0.0000
1.2700,0.8228,0.0000
1.2710,0.8230,0.0000
1.2720,0.8232,0.0000
1.2730,0.8233,0.0000
1.2740,0.8234,0.0000
1.2750,0.8234,0.0000
1.2760,0.8236,0.0000
1.2770,0.8237,0.0000
1.2780,0.8239,0.0000
1.2790,0.8239,0.0000
1.2800,0.8241,0.0000
1.2810,0.8241,0.0000
1.2820,0.8243,0.0000
1.2830,0.8243,0.0000
1.2840,0.8245,0.0000
1.2850,0.8247,0.0000
1.2860,0.8248,0.0000
1.2870,0.8249,0.0000
1.2880,0.8249,0.0000
1.2890,0.8251,0.0000
1.2900,0.8252,0.0000
1.2910,0.8254,0.0000
1.2920,0.8256,0.0000
1.2930,0.8256,0.0000
1.2940,0.8258,0.0000
1.2950,0.8258,0.0000
1.2960,0.8260,0.0000
1.2970,0.8262,0.0000
1.2980,0.8263,0.0000
1.2990,0.8264,0.0000
1.3000,0.8264,0.0000
1.3010,0.8266,0.0000
1.3020,0.8269,0.0000
1.3030,0.8269,0.0000
1.3040,0.8271,0.0000
1.3050,0.8272,0.0000
1.3060,0.8273,0.0000
1.3070,0.8275,0.0000
1.3080,0.8277,0.0000
1.3090,0.8277,0.0000
1.3100,0.8280,0.0000
1.3110,0.8281,0.0000
1.3120,0.8281,0.0000
1.3130,0.8284,0.0000
1.3140,0.8286,0.0000
1.3150,0.8286,0.0000
1.3160,0.8288,0.0000
1.3170,0.8290,0.0000
1.3180,0.8290,0.0000
1.3190,0.8292,0.0000
1.3200,0.8295,0.0000
1.3210,0.8296,0.0000
1.3220,0.8296,0.0000
1.3230,0.8298,0.0000
1.3240,0.8301,0.0000
1.3250,0.8301,0.0000
1.3260,0.8303,0.0000
1.3270,0.8305,0.0000
1.3280,0.8307,0.0000
1.3290,0.8307,0.0000
1.3300,0.8309,0.0000
1.3310,0.8311,0.0000
1.3320,0.8313,0.0000
1.3330,0.8313,0.0000
1.3340,0.8316,0.0000
1.3350,0.8318,0.0000
1.3360,0.8320,0.0000
1.3370,0.8320,0.0000
1.3380,0.8322,0.0000
1.3390,0.8324,0.0000
1.3400,0.8326,0.0000
1.3410,0.8327,0.0000
1.3420,0.8328,0.0000
1.3430,0.8330,0.0000
1.3440,0.8333,0.0000
1.3450,0.8333,0.0000
1.3460,0.8335,0.0000
1.3470,0.8337,0.0000
1.3480,0.8339,0.0000
1.3490,0.8339,0.0000
1.3500,0.8341,0.0000
1.3510,0.8344,0.0000
1.3520,0.8345,0.0000
1.3530,0.8345,0.0000
1.3540,0.8348,0.0000
1.3550,0.8350,0.0000
1.3560,0.8352,0.0000
1.3570,0.8352,0.0000
1.3580,0.8354,0.0000
1.3590,0.8356,0.0000
1.3600,0.8358,0.0000
1.3610,0.8359,0.0000
1.3620,0.8361,0.0000
1.3630,0.8362,0.0000
1.3640,0.8365,0.0000
1.3650,0.8365,0.0000
1.3660,0.8367,0.0000
1.3670,0.8369,0.0000
1.3680,0.8371,0.0000
1.3690,0.8371,0.0000
1.3700,0.8373,0.0000
1.3710,0.8376,0.0000
1.3720,0.8376,0.0000
1.3730,0.8378,0.0000
1.3740,0.8380,0.0000
1.3750,0.8382,0.0000
1.3760,0.8382,0.0000
1.3770,0.8384,0.0000
1.3780,0.8386,0.0000
1.3790,0.8386,0.0000
1.3800,0.8388,0.0000
1.3810,0.8391,0.0000
1.3820,0.8393,0.0000
1.3830,0.8393,0.0000
1.3840,0.8395,0.0000
1.3850,0.8397,0.0000
1.3860,0.8397,0.0000
1.3870,0.8399,0.0000
1.3880,0.8401,0.0000
1.3890,0.8402,0.0000
1.3900,0.8403,0.0000
1.3910,0.8405,0.0000
1.3920,0.8406,0.0000
1.3930,0.8408,0.0000
1.3940,0.8410,0.0000
1.3950,0.8410,0.0000
1.3960,0.8412,0.0000
1.3970,0.8412,0.0000
1.3980,0.8414,0.0000
1.3990,0.8416,0.0000
1.4000,0.8417,0.0000
1.4010,0.8419,0.0000
1.4020,0.8419,0.0000
1.4030,0.8420,0.0000
1.4040,0.8423,0.0000
1.4050,0.8423,0.0000
1.4060,0.8425,0.0000
1.4070,0.8425,0.0000
1.4080,0.8427,0.0000
1.4090,0.8428,0.0000
1.4100,0.8429,0.0000
1.4110,0.8429,0.0000
1.4120,0.8431,0.0000
1.4130,0.8434,0.0000
1.4140,0.8434,0.0000
1.4150,0.8436,0.0000
1.4160,0.8436,0.0000
1.4170,0.8438,0.0000
1.4180,0.8438,0.0000
1.4190,0.8440,0.0000
1.4200,0.8440,0.0000
1.4210,0.8442,0.0000
1.4220,0.8443,0.0000
1.4230,0.8445,0.0000
1.4240,0.8445,0.0000
1.4250,0.8447,0.0000
1.4260,0.8447,0.0000
1.4270,0.8449,0.0000
1.4280,0.8449,0.0000
1.4290,0.8451,0.0000
1.4300,0.8451,0.0000
1.4310,0.8453,0.0000
1.4320,0.8454,0.0000
1.4330,0.8454,0.0000
1.4340,0.8456,0.0000
1.4350,0.8456,0.0000
1.4360,0.8457,0.0000
1.4370,0.8458,0.0000
1.4380,0.8460,0.0000
1.4390,0.8460,0.0000
1.4400,0.8462,0.0000
1.4410,0.8462,0.0000
1.4420,0.8463,0.0000
1.4430,0.8464,0.0000
1.4440,0.8464,0.0000
1.4450,0.8466,0.0000
1.4460,0.8466,0.0000
1.4470,0.8469,0.0000
1.4480,0.8469,0.0000
1.4490,0.8469,0.0000
